volume	energy
46.70910619	-22.40687928
51.5374438	-22.54543684
56.68755525	-22.64284419
62.16982034	-22.7066323
67.99461888	-22.74301774
74.17233066	-22.75718143
80.7133355	-22.75343984
87.62801318	-22.73542953
94.92674352	-22.70621837
102.6199063	-22.66838869
110.7178813	-22.62411125
119.2310484	-22.57523358
128.1697874	-22.52331266
137.544478	-22.46966696
147.3655001	-22.41540807
