volume	energy
195.7078448	-15.56637501
215.9382372	-15.67067319
237.5168392	-15.73982774
260.4871414	-15.78173786
284.8926345	-15.80304071
310.7768091	-15.80889764
338.1831558	-15.80345502
367.1551653	-15.7899261
397.7363281	-15.77088054
429.970135	-15.74828318
499.5696434	-15.69775938
537.0223261	-15.6716608
576.3016154	-15.64578966
617.4510019	-15.62014662
