volume	energy
141.2970233	-15.16643078
155.902949	-15.34288824
171.4822541	-15.47538249
188.0663381	-15.57191047
205.6866002	-15.63912934
224.3744398	-15.68259191
244.1612563	-15.70693444
265.078449	-15.71603503
287.1574172	-15.71314441
310.4295603	-15.70098961
334.9262775	-15.68185733
360.6789683	-15.6576539
387.719032	-15.62995322
416.0778679	-15.60009649
445.7868754	-15.56900301
476.8774538	-15.53739217
